column_id,node_i,node_j,bx [mm],by [mm],length [mm],wg [kN/m],wq [kN/m],fcd [MPa],fsyd [MPa],cover [mm],dbl_cor [mm],dbl_int [mm],nblx_int,nbly_int,dbh [mm],sbh [mm],nbh_x,nbh_y,fcm_q [MPa],fsyml_q [MPa],fsymh_q [MPa],sbh_q [mm],cover_q [mm],bondslip_factor_q
1,1,1001,300,300,2900,2.16,0,8.5,300,30,12,12,0,1,6,125,2,2,17.7208,604.247,603.982,161.827,33.4745,1
2,2,1002,350,350,2900,2.94,0,8.5,300,30,12,12,1,1,6,125,2,2,26.8046,600.872,582.076,141.811,34.5914,1
3,3,1003,350,350,2900,2.94,0,8.5,300,30,12,12,1,1,6,125,2,2,25.306,593.234,580.704,152.394,25.1851,1
6,6,1006,350,350,2900,2.94,0,8.5,300,30,12,12,1,1,6,125,2,2,25.1139,622.526,567.104,129.978,32.7717,1
7,7,1007,350,350,2900,2.94,0,8.5,300,30,12,12,1,1,6,125,2,2,23.9463,615.631,587.876,144.004,28.6004,1
8,8,1008,300,300,2900,2.16,0,8.5,300,30,12,12,0,1,6,125,2,2,22.1665,615.175,599.211,128.546,22.444,1
9,9,1009,350,350,2900,2.94,0,8.5,300,30,12,12,1,1,6,125,2,2,27.7802,625.861,585.405,143.605,30.2637,1
10,10,1010,400,400,2900,3.84,0,8.5,300,30,12,12,3,4,6,125,2,2,23.536,559.306,578.124,125.368,29.8884,1
11,11,1011,400,400,2900,3.84,0,8.5,300,30,12,12,3,4,6,125,2,2,23.0836,599.704,599.718,126.567,38.0201,1
12,12,1012,400,400,2900,3.84,0,8.5,300,30,12,12,2,5,6,100,2,2,27.8074,623.511,619.815,127.422,30.9226,1
13,13,1013,400,400,2900,3.84,0,8.5,300,30,12,12,2,5,6,100,2,2,26.5289,583.642,566.85,126.687,36.609,1
14,14,1014,400,400,2900,3.84,0,8.5,300,30,12,12,3,4,6,125,2,2,20.9599,589.734,588.926,153.971,29.3036,1
15,15,1015,400,400,2900,3.84,0,8.5,300,30,12,12,3,4,6,125,2,2,26.3224,600.19,619.652,144.858,33.6202,1
16,16,1016,350,350,2900,2.94,0,8.5,300,30,12,12,1,1,6,125,2,2,21.8433,606.99,605.169,131.238,43.6829,1
17,17,1017,350,350,2900,2.94,0,8.5,300,30,12,12,1,1,6,125,2,2,30.6208,593.55,614.513,152.683,19.9844,1
18,18,1018,400,400,2900,3.84,0,8.5,300,30,16,12,1,1,6,125,2,2,32.2764,592.455,620.386,133.029,29.2747,1
19,19,1019,400,400,2900,3.84,0,8.5,300,30,16,12,1,1,6,125,2,2,26.0683,611.48,588.466,127.176,28.9581,1
20,20,1020,350,350,2900,2.94,0,8.5,300,30,12,12,1,2,6,125,2,2,32.0716,573.019,609.706,136.838,35.0117,1
21,21,1021,350,350,2900,2.94,0,8.5,300,30,12,12,1,2,6,125,2,2,19.7296,611.997,590.473,146.957,19.771,1
22,22,1022,400,400,2900,3.84,0,8.5,300,30,16,12,1,1,6,125,2,2,26.2126,597.305,623.577,146.819,31.2338,1
23,23,1023,400,400,2900,3.84,0,8.5,300,30,16,12,1,1,6,125,2,2,19.3219,604.959,626.34,156.172,26.6804,1
24,24,1024,350,350,2900,2.94,0,8.5,300,30,12,12,1,1,6,125,2,2,25.2135,608.159,585.28,139.698,29.6496,1
25,25,1025,300,300,2900,2.16,0,8.5,300,30,12,12,0,1,6,125,2,2,20.1518,580.954,613.442,130.611,33.6542,1
26,26,1026,350,350,2900,2.94,0,8.5,300,30,12,12,1,1,6,125,2,2,20.814,619.879,575.418,126.49,32.0569,1
27,27,1027,350,350,2900,2.94,0,8.5,300,30,12,12,1,1,6,125,2,2,27.4563,614.025,603.789,132.426,26.1512,1
28,28,1028,300,300,2900,2.16,0,8.5,300,30,12,12,1,1,6,125,2,2,22.4929,595.254,599.321,160.033,25.4497,1
29,29,1029,300,300,2900,2.16,0,8.5,300,30,12,12,1,1,6,125,2,2,20.3896,587.232,603.796,126.396,36.9309,1
30,30,1030,350,350,2900,2.94,0,8.5,300,30,12,12,1,1,6,125,2,2,22.4071,577.46,610.685,148.935,30.1136,1
31,31,1031,350,350,2900,2.94,0,8.5,300,30,12,12,1,1,6,125,2,2,24.2024,592.55,617.138,141.367,45.157,1
32,32,1032,300,300,2900,2.16,0,8.5,300,30,12,12,0,1,6,125,2,2,25.7245,608.501,600.114,132.014,32.6425,1
1001,1001,2001,300,300,2900,2.16,0,8.5,300,30,12,12,0,1,6,125,2,2,22.121,613.495,578.653,150.264,25.8048,1
1002,1002,2002,350,350,2900,2.94,0,8.5,300,30,12,12,2,0,6,125,2,2,28.093,593.297,620.818,147.306,24.7756,1
1003,1003,2003,350,350,2900,2.94,0,8.5,300,30,12,12,2,0,6,125,2,2,25.9227,588.543,577.22,127.507,27.3861,1
1006,1006,2006,350,350,2900,2.94,0,8.5,300,30,12,12,2,0,6,125,2,2,26.2125,593.331,612.458,149.897,34.6341,1
1007,1007,2007,350,350,2900,2.94,0,8.5,300,30,12,12,2,0,6,125,2,2,24.6833,627.676,582.721,127.865,29.4072,1
1008,1008,2008,300,300,2900,2.16,0,8.5,300,30,12,12,0,1,6,125,2,2,30.7975,580.753,619.769,133.39,31.0444,1
1009,1009,2009,350,350,2900,2.94,0,8.5,300,30,12,12,0,2,6,125,2,2,27.2211,585.398,605.177,146.361,31.4811,1
1010,1010,2010,400,400,2900,3.84,0,8.5,300,30,12,12,0,3,6,125,2,2,21.4688,607.667,592.616,151.862,24.8769,1
1011,1011,2011,400,400,2900,3.84,0,8.5,300,30,12,12,0,3,6,125,2,2,29.0472,583.997,616.786,146.687,27.6723,1
1012,1012,2012,400,400,2900,3.84,0,8.5,300,30,12,12,0,3,6,125,2,2,37.5186,590.727,586.447,158.663,26.9273,1
1013,1013,2013,400,400,2900,3.84,0,8.5,300,30,12,12,0,3,6,125,2,2,26.1439,612.933,588.307,151.264,40.6929,1
1014,1014,2014,400,400,2900,3.84,0,8.5,300,30,12,12,0,3,6,125,2,2,33.395,592.211,593.269,161.376,18.4534,1
1015,1015,2015,400,400,2900,3.84,0,8.5,300,30,12,12,0,3,6,125,2,2,24.0948,603.696,596.744,135.287,42.2156,1
1016,1016,2016,350,350,2900,2.94,0,8.5,300,30,12,12,0,2,6,125,2,2,27.0431,602.759,588.462,161.931,24.1961,1
1017,1017,2017,350,350,2900,2.94,0,8.5,300,30,12,12,0,2,6,125,2,2,25.2061,590.673,621.42,132.296,30.6725,1
1018,1018,2018,400,400,2900,3.84,0,8.5,300,30,16,12,0,2,6,150,2,2,25.3243,589.909,597.755,158.669,26.4195,1
1019,1019,2019,400,400,2900,3.84,0,8.5,300,30,16,12,0,2,6,150,2,2,30.4393,591.742,625.468,158.54,27.0815,1
1020,1020,2020,350,350,2900,2.94,0,8.5,300,30,12,12,0,2,6,125,2,2,26.6152,617.576,590.118,129.427,34.6112,1
1021,1021,2021,350,350,2900,2.94,0,8.5,300,30,12,12,0,2,6,125,2,2,36.6006,569.596,598.818,148.458,33.1475,1
1022,1022,2022,400,400,2900,3.84,0,8.5,300,30,16,12,0,2,6,150,2,2,26.7309,580.367,612.846,150.204,34.6726,1
1023,1023,2023,400,400,2900,3.84,0,8.5,300,30,16,12,0,2,6,150,2,2,19.7942,593.894,635.545,186.341,25.1514,1
1024,1024,2024,350,350,2900,2.94,0,8.5,300,30,12,12,0,2,6,125,2,2,24.4175,588.543,598.108,147.464,25.4022,1
1025,1025,2025,300,300,2900,2.16,0,8.5,300,30,12,12,0,1,6,125,2,2,32.1891,602.378,598.872,136.358,34.5011,1
1026,1026,2026,350,350,2900,2.94,0,8.5,300,30,12,12,2,0,6,125,2,2,24.9328,601.488,623.869,158.407,23.7476,1
1027,1027,2027,350,350,2900,2.94,0,8.5,300,30,12,12,2,0,6,125,2,2,17.7945,599.826,597.444,156.606,39.0928,1
1028,1028,2028,300,300,2900,2.16,0,8.5,300,30,12,12,1,0,6,125,2,2,22.8039,592.217,597.757,148.69,39.9376,1
1029,1029,2029,300,300,2900,2.16,0,8.5,300,30,12,12,1,0,6,125,2,2,19.3778,600.431,625.677,127.837,30.0775,1
1030,1030,2030,350,350,2900,2.94,0,8.5,300,30,12,12,2,0,6,125,2,2,43.1343,612.02,599.883,161.181,33.3807,1
1031,1031,2031,350,350,2900,2.94,0,8.5,300,30,12,12,2,0,6,125,2,2,38.1486,613.456,583.077,148.199,27.5413,1
1032,1032,2032,300,300,2900,2.16,0,8.5,300,30,12,12,0,1,6,125,2,2,30.9422,601.237,623.973,158.524,32.1742,1
2001,2001,3001,250,250,2900,1.5,0,8.5,300,30,12,12,0,0,6,125,2,2,27.5285,613.108,600.055,131.112,20.2727,1
2002,2002,3002,250,250,2900,1.5,0,8.5,300,30,12,12,0,0,6,125,2,2,30.2072,573.292,594.675,126.019,25.6944,1
2003,2003,3003,250,250,2900,1.5,0,8.5,300,30,12,12,0,0,6,125,2,2,21.5886,584.906,619.596,136.22,29.3103,1
2006,2006,3006,250,250,2900,1.5,0,8.5,300,30,12,12,0,0,6,125,2,2,23.4459,610.116,569.074,154.389,29.8532,1
2007,2007,3007,250,250,2900,1.5,0,8.5,300,30,12,12,0,0,6,125,2,2,26.4613,595.625,624.834,155.876,46.4866,1
2008,2008,3008,250,250,2900,1.5,0,8.5,300,30,12,12,0,0,6,125,2,2,24.2911,592.938,579.997,158.354,55.3479,1
2009,2009,3009,250,250,2900,1.5,0,8.5,300,30,12,12,0,0,6,125,2,2,18.652,602.729,578.842,138.221,23.7901,1
2010,2010,3010,350,350,2900,2.94,0,8.5,300,30,12,12,2,0,6,125,2,2,39.9791,595.138,624.081,155.679,26.638,1
2011,2011,3011,350,350,2900,2.94,0,8.5,300,30,12,12,2,0,6,125,2,2,25.3836,620.407,599.172,130.813,22.7285,1
2012,2012,3012,350,350,2900,2.94,0,8.5,300,30,12,12,0,2,6,125,2,2,26.1962,595.707,586.409,145.609,27.6459,1
2013,2013,3013,350,350,2900,2.94,0,8.5,300,30,12,12,0,2,6,125,2,2,23.8563,614.869,632.388,126.899,41.5995,1
2014,2014,3014,350,350,2900,2.94,0,8.5,300,30,12,12,2,0,6,125,2,2,22.9837,603.881,593.651,152,31.0737,1
2015,2015,3015,350,350,2900,2.94,0,8.5,300,30,12,12,2,0,6,125,2,2,24.6832,620.647,623.958,138.575,21.1355,1
2016,2016,3016,250,250,2900,1.5,0,8.5,300,30,12,12,0,0,6,125,2,2,31.6913,599.401,598.476,129.045,30.312,1
2017,2017,3017,250,250,2900,1.5,0,8.5,300,30,12,12,0,0,6,125,2,2,29.6743,626.577,594.961,149.935,40.4898,1
2018,2018,3018,350,350,2900,2.94,0,8.5,300,30,16,12,0,1,6,150,2,2,24.5841,602.909,602.78,169.17,44.0756,1
2019,2019,3019,350,350,2900,2.94,0,8.5,300,30,16,12,0,1,6,150,2,2,16.7512,571.951,620.502,164.368,39.3169,1
2020,2020,3020,250,250,2900,1.5,0,8.5,300,30,12,12,0,0,6,125,2,2,30.8794,609.675,631.639,138.687,34.5354,1
2021,2021,3021,250,250,2900,1.5,0,8.5,300,30,12,12,0,0,6,125,2,2,23.1195,616.523,607.732,153.686,26.2399,1
2022,2022,3022,350,350,2900,2.94,0,8.5,300,30,16,12,0,1,6,150,2,2,27.2585,580.961,594.976,168.356,38.7892,1
2023,2023,3023,350,350,2900,2.94,0,8.5,300,30,16,12,0,1,6,150,2,2,17.6986,627.493,616.677,189.634,26.969,1
2024,2024,3024,250,250,2900,1.5,0,8.5,300,30,12,12,0,0,6,125,2,2,28.4261,602.4,621.912,130.726,37.8579,1
2025,2025,3025,250,250,2900,1.5,0,8.5,300,30,12,12,0,0,6,125,2,2,24.6914,609.761,601.619,139.512,21.2055,1
2026,2026,3026,250,250,2900,1.5,0,8.5,300,30,12,12,0,0,6,125,2,2,26.1054,588.726,608.427,157.592,21.8472,1
2027,2027,3027,250,250,2900,1.5,0,8.5,300,30,12,12,0,0,6,125,2,2,25.0437,623.937,617.246,147.394,35.5802,1
2028,2028,3028,250,250,2900,1.5,0,8.5,300,30,12,12,0,0,6,125,2,2,24.2161,605.536,607.247,152.183,23.391,1
2029,2029,3029,250,250,2900,1.5,0,8.5,300,30,12,12,0,0,6,125,2,2,26.8224,601.634,605.825,156.519,29.096,1
2030,2030,3030,250,250,2900,1.5,0,8.5,300,30,12,12,0,0,6,125,2,2,38.4244,627.1,595.463,144.691,27.6721,1
2031,2031,3031,250,250,2900,1.5,0,8.5,300,30,12,12,0,0,6,125,2,2,20.5165,602.153,603.828,129.622,26.6658,1
2032,2032,3032,250,250,2900,1.5,0,8.5,300,30,12,12,0,0,6,125,2,2,23.7192,601.193,589.649,137.121,27.9551,1
3001,3001,4001,250,250,2900,1.5,0,8.5,300,30,12,12,0,0,6,125,2,2,18.4963,575.065,582.623,134.939,29.7851,1
3002,3002,4002,250,250,2900,1.5,0,8.5,300,30,12,12,0,0,6,125,2,2,29.7044,601.751,590.36,130.824,36.4951,1
3003,3003,4003,250,250,2900,1.5,0,8.5,300,30,12,12,0,0,6,125,2,2,28.3534,609.934,597.976,147.703,31.8429,1
3006,3006,4006,250,250,2900,1.5,0,8.5,300,30,12,12,0,0,6,125,2,2,22.3209,594.98,594.029,133.015,39.1008,1
3007,3007,4007,250,250,2900,1.5,0,8.5,300,30,12,12,0,0,6,125,2,2,25.0674,607.028,608.004,157.315,36.5033,1
3008,3008,4008,250,250,2900,1.5,0,8.5,300,30,12,12,0,0,6,125,2,2,28.1447,602.426,595.534,142.066,24.3021,1
3009,3009,4009,250,250,2900,1.5,0,8.5,300,30,12,12,0,0,6,125,2,2,28.4149,587.921,600.183,155.095,28.8535,1
3010,3010,4010,350,350,2900,2.94,0,8.5,300,30,12,12,0,2,6,125,2,2,21.61,601.767,591.793,156.738,30.5012,1
3011,3011,4011,350,350,2900,2.94,0,8.5,300,30,12,12,0,2,6,125,2,2,33.1243,599.097,580.135,149.758,26.3087,1
3012,3012,4012,350,350,2900,2.94,0,8.5,300,30,12,12,0,2,6,125,2,2,30.4689,593.752,608.662,155.71,31.0185,1
3013,3013,4013,350,350,2900,2.94,0,8.5,300,30,12,12,0,2,6,125,2,2,20.9478,606.328,588.731,154.606,44.2811,1
3014,3014,4014,350,350,2900,2.94,0,8.5,300,30,12,12,0,2,6,125,2,2,32.7161,577.265,598.7,146.723,25.7971,1
3015,3015,4015,350,350,2900,2.94,0,8.5,300,30,12,12,0,2,6,125,2,2,29.8965,595.152,603.577,137.272,35.1188,1
3016,3016,4016,250,250,2900,1.5,0,8.5,300,30,12,12,0,0,6,125,2,2,30.9053,597.516,606.745,140.46,50.1821,1
3017,3017,4017,250,250,2900,1.5,0,8.5,300,30,12,12,0,0,6,125,2,2,26.7192,629.832,596.778,136.384,26.2809,1
3018,3018,4018,350,350,2900,2.94,0,8.5,300,30,16,12,0,1,6,150,2,2,22.4152,607.839,591.281,171.777,37.1051,1
3019,3019,4019,350,350,2900,2.94,0,8.5,300,30,16,12,0,1,6,150,2,2,34.5555,604.83,618.914,168.123,24.8641,1
3020,3020,4020,250,250,2900,1.5,0,8.5,300,30,12,12,0,0,6,125,2,2,27.3904,585.021,605.574,137.469,39.8427,1
3021,3021,4021,250,250,2900,1.5,0,8.5,300,30,12,12,0,0,6,125,2,2,24.1555,597.554,589.876,129.193,27.0783,1
3022,3022,4022,350,350,2900,2.94,0,8.5,300,30,16,12,0,1,6,150,2,2,23.0407,595.091,611.09,168.604,26.6675,1
3023,3023,4023,350,350,2900,2.94,0,8.5,300,30,16,12,0,1,6,150,2,2,34.3521,623.833,601.388,156.287,38.9781,1
3024,3024,4024,250,250,2900,1.5,0,8.5,300,30,12,12,0,0,6,125,2,2,25.1057,598.224,596.97,138.646,26.8751,1
3025,3025,4025,250,250,2900,1.5,0,8.5,300,30,12,12,0,0,6,125,2,2,26.6768,616.09,580.863,129.035,25.7432,1
3026,3026,4026,250,250,2900,1.5,0,8.5,300,30,12,12,0,0,6,125,2,2,27.6234,605.956,588.635,139.371,27.1574,1
3027,3027,4027,250,250,2900,1.5,0,8.5,300,30,12,12,0,0,6,125,2,2,31.5477,617.831,581.522,145.163,32.822,1
3028,3028,4028,250,250,2900,1.5,0,8.5,300,30,12,12,0,0,6,125,2,2,27.843,560.657,607.797,127.794,20.0237,1
3029,3029,4029,250,250,2900,1.5,0,8.5,300,30,12,12,0,0,6,125,2,2,21.7153,621.963,610.09,134.632,24.4629,1
3030,3030,4030,250,250,2900,1.5,0,8.5,300,30,12,12,0,0,6,125,2,2,27.3787,625.385,597.578,140.995,23.4972,1
3031,3031,4031,250,250,2900,1.5,0,8.5,300,30,12,12,0,0,6,125,2,2,26.0034,584.959,576.408,135.224,30.3531,1
3032,3032,4032,250,250,2900,1.5,0,8.5,300,30,12,12,0,0,6,125,2,2,26.7808,577.794,585.853,146.117,21.6433,1
4085,4,4033,350,350,1450,2.94,0,8.5,300,30,12,12,1,4,6,75,2,2,29.0267,592.913,624.445,93.2506,39.769,1
4086,4033,1004,350,350,1450,2.94,0,8.5,300,30,12,12,0,2,6,75,2,2,22.7841,603.251,618.841,92.6061,29.5267,1
4087,5,4034,350,350,1450,2.94,0,8.5,300,30,12,12,1,4,6,75,2,2,21.8791,600.909,596.145,79.6924,31.8101,1
4088,4034,1005,350,350,1450,2.94,0,8.5,300,30,12,12,0,2,6,75,2,2,20.4693,597.555,584.106,79.4699,25.3646,1
4090,1004,4035,350,350,1450,2.94,0,8.5,300,30,12,12,0,2,6,75,2,2,23.1847,620.711,597.871,87.5569,33.2382,1
4091,4035,2004,350,350,1450,2.94,0,8.5,300,30,12,12,0,2,6,75,2,2,16.4479,602.651,597.494,83.2515,20.1993,1
4092,1005,4036,350,350,1450,2.94,0,8.5,300,30,12,12,0,2,6,75,2,2,27.9283,623.041,569.834,76.0542,22.6049,1
4093,4036,2005,350,350,1450,2.94,0,8.5,300,30,12,12,0,2,6,75,2,2,23.4752,602.888,608.761,80.2118,39.3548,1
4095,2004,4037,250,250,1450,1.5,0,8.5,300,30,12,12,0,1,6,125,2,2,21.8898,586.712,606.113,161.169,25.6205,1
4096,4037,3004,250,250,1450,1.5,0,8.5,300,30,12,12,0,0,6,125,2,2,20.1224,632.321,603.291,161.378,29.8548,1
4097,2005,4038,250,250,1450,1.5,0,8.5,300,30,12,12,0,1,6,125,2,2,23.319,646.22,613.142,138.379,30.3498,1
4098,4038,3005,250,250,1450,1.5,0,8.5,300,30,12,12,0,0,6,125,2,2,22.3253,597.985,613.937,126.566,25.0827,1
4100,3004,4039,250,250,1450,1.5,0,8.5,300,30,12,12,0,0,6,125,2,2,23.3444,610.808,588.235,154.995,31.3887,1
4101,4039,4004,250,250,1450,1.5,0,8.5,300,30,12,12,0,0,6,125,2,2,25.7714,605.262,578.294,135.525,26.3987,1
4102,3005,4040,250,250,1450,1.5,0,8.5,300,30,12,12,0,0,6,125,2,2,26.8023,586.716,594.995,126.943,32.504,1
4103,4040,4005,250,250,1450,1.5,0,8.5,300,30,12,12,0,0,6,125,2,2,32.0325,603.005,617.987,134.17,26.3329,1
